3997.80150	0.95281
3996.38383	0.95286
3994.96617	0.95310
3993.54851	0.95343
3992.13085	0.95359
3990.71319	0.95352
3989.29553	0.95341
3987.87787	0.95341
3986.46021	0.95364
3985.04255	0.95412
3983.62489	0.95464
3982.20723	0.95475
3980.78957	0.95429
3979.37191	0.95361
3977.95425	0.95314
3976.53659	0.95292
3975.11893	0.95280
3973.70127	0.95279
3972.28361	0.95295
3970.86595	0.95324
3969.44829	0.95359
3968.03063	0.95406
3966.61297	0.95459
3965.19531	0.95494
3963.77765	0.95494
3962.35999	0.95472
3960.94233	0.95448
3959.52467	0.95433
3958.10701	0.95419
3956.68935	0.95399
3955.27169	0.95380
3953.85403	0.95370
3952.43637	0.95377
3951.01871	0.95398
3949.60105	0.95417
3948.18339	0.95420
3946.76573	0.95410
3945.34807	0.95397
3943.93041	0.95383
3942.51275	0.95367
3941.09509	0.95362
3939.67743	0.95378
3938.25977	0.95392
3936.84211	0.95382
3935.42445	0.95359
3934.00679	0.95350
3932.58913	0.95361
3931.17147	0.95363
3929.75381	0.95335
3928.33615	0.95285
3926.91849	0.95244
3925.50083	0.95236
3924.08317	0.95262
3922.66551	0.95310
3921.24785	0.95376
3919.83019	0.95451
3918.41253	0.95505
3916.99487	0.95501
3915.57721	0.95448
3914.15955	0.95388
3912.74189	0.95352
3911.32423	0.95350
3909.90657	0.95375
3908.48891	0.95398
3907.07125	0.95396
3905.65359	0.95378
3904.23593	0.95375
3902.81827	0.95393
3901.40061	0.95411
3899.98295	0.95409
3898.56529	0.95390
3897.14763	0.95367
3895.72997	0.95353
3894.31231	0.95347
3892.89465	0.95352
3891.47699	0.95373
3890.05933	0.95394
3888.64167	0.95390
3887.22401	0.95371
3885.80635	0.95382
3884.38869	0.95445
3882.97103	0.95517
3881.55337	0.95544
3880.13571	0.95519
3878.71805	0.95478
3877.30039	0.95457
3875.88273	0.95451
3874.46507	0.95432
3873.04741	0.95396
3871.62975	0.95373
3870.21209	0.95391
3868.79443	0.95440
3867.37677	0.95493
3865.95911	0.95538
3864.54145	0.95571
3863.12379	0.95589
3861.70612	0.95598
3860.28846	0.95594
3858.87080	0.95567
3857.45314	0.95520
3856.03548	0.95477
3854.61782	0.95476
3853.20016	0.95532
3851.78250	0.95595
3850.36484	0.95613
3848.94718	0.95596
3847.52952	0.95577
3846.11186	0.95572
3844.69420	0.95577
3843.27654	0.95581
3841.85888	0.95584
3840.44122	0.95596
3839.02356	0.95615
3837.60590	0.95634
3836.18824	0.95649
3834.77058	0.95649
3833.35292	0.95610
3831.93526	0.95527
3830.51760	0.95438
3829.09994	0.95385
3827.68228	0.95369
3826.26462	0.95363
3824.84696	0.95356
3823.42930	0.95363
3822.01164	0.95401
3820.59398	0.95466
3819.17632	0.95536
3817.75866	0.95592
3816.34100	0.95640
3814.92334	0.95680
3813.50568	0.95695
3812.08802	0.95670
3810.67036	0.95616
3809.25270	0.95569
3807.83504	0.95551
3806.41738	0.95543
3804.99972	0.95516
3803.58206	0.95481
3802.16440	0.95469
3800.74674	0.95488
3799.32908	0.95514
3797.91142	0.95530
3796.49376	0.95539
3795.07610	0.95552
3793.65844	0.95585
3792.24078	0.95637
3790.82312	0.95679
3789.40546	0.95678
3787.98780	0.95638
3786.57014	0.95597
3785.15248	0.95588
3783.73482	0.95606
3782.31716	0.95624
3780.89950	0.95627
3779.48184	0.95604
3778.06418	0.95567
3776.64652	0.95558
3775.22886	0.95601
3773.81120	0.95666
3772.39354	0.95702
3770.97588	0.95702
3769.55822	0.95707
3768.14056	0.95751
3766.72290	0.95813
3765.30524	0.95856
3763.88758	0.95869
3762.46992	0.95864
3761.05226	0.95848
3759.63460	0.95823
3758.21694	0.95798
3756.79928	0.95784
3755.38162	0.95779
3753.96396	0.95775
3752.54630	0.95766
3751.12864	0.95746
3749.71098	0.95707
3748.29332	0.95669
3746.87566	0.95674
3745.45800	0.95750
3744.04034	0.95869
3742.62268	0.95932
3741.20502	0.95902
3739.78736	0.95846
3738.36970	0.95834
3736.95204	0.95879
3735.53438	0.95941
3734.11672	0.95970
3732.69906	0.95965
3731.28140	0.95960
3729.86374	0.95979
3728.44608	0.96031
3727.02842	0.96097
3725.61075	0.96120
3724.19309	0.96052
3722.77543	0.95925
3721.35777	0.95833
3719.94011	0.95837
3718.52245	0.95907
3717.10479	0.95959
3715.68713	0.95939
3714.26947	0.95871
3712.85181	0.95817
3711.43415	0.95815
3710.01649	0.95842
3708.59883	0.95860
3707.18117	0.95866
3705.76351	0.95877
3704.34585	0.95903
3702.92819	0.95943
3701.51053	0.95984
3700.09287	0.95996
3698.67521	0.95969
3697.25755	0.95926
3695.83989	0.95903
3694.42223	0.95918
3693.00457	0.95956
3691.58691	0.95978
3690.16925	0.95969
3688.75159	0.95957
3687.33393	0.95976
3685.91627	0.96009
3684.49861	0.96007
3683.08095	0.95950
3681.66329	0.95862
3680.24563	0.95790
3678.82797	0.95757
3677.41031	0.95743
3675.99265	0.95712
3674.57499	0.95667
3673.15733	0.95664
3671.73967	0.95729
3670.32201	0.95830
3668.90435	0.95895
3667.48669	0.95891
3666.06903	0.95858
3664.65137	0.95836
3663.23371	0.95820
3661.81605	0.95796
3660.39839	0.95772
3658.98073	0.95758
3657.56307	0.95748
3656.14541	0.95741
3654.72775	0.95756
3653.31009	0.95803
3651.89243	0.95865
3650.47477	0.95924
3649.05711	0.95970
3647.63945	0.95998
3646.22179	0.95990
3644.80413	0.95947
3643.38647	0.95904
3641.96881	0.95895
3640.55115	0.95909
3639.13349	0.95903
3637.71583	0.95873
3636.29817	0.95864
3634.88051	0.95899
3633.46285	0.95939
3632.04519	0.95934
3630.62753	0.95886
3629.20987	0.95854
3627.79221	0.95874
3626.37455	0.95901
3624.95689	0.95888
3623.53923	0.95852
3622.12157	0.95828
3620.70391	0.95815
3619.28625	0.95789
3617.86859	0.95754
3616.45093	0.95736
3615.03327	0.95740
3613.61561	0.95750
3612.19795	0.95758
3610.78029	0.95775
3609.36263	0.95820
3607.94497	0.95888
3606.52731	0.95929
3605.10965	0.95894
3603.69199	0.95796
3602.27433	0.95703
3600.85667	0.95680
3599.43901	0.95727
3598.02135	0.95776
3596.60369	0.95770
3595.18603	0.95728
3593.76837	0.95713
3592.35071	0.95754
3590.93304	0.95821
3589.51538	0.95874
3588.09772	0.95887
3586.68006	0.95850
3585.26240	0.95786
3583.84474	0.95731
3582.42708	0.95701
3581.00942	0.95681
3579.59176	0.95648
3578.17410	0.95595
3576.75644	0.95546
3575.33878	0.95526
3573.92112	0.95527
3572.50346	0.95512
3571.08580	0.95469
3569.66814	0.95429
3568.25048	0.95428
3566.83282	0.95456
3565.41516	0.95468
3563.99750	0.95448
3562.57984	0.95418
3561.16218	0.95401
3559.74452	0.95398
3558.32686	0.95397
3556.90920	0.95387
3555.49154	0.95376
3554.07388	0.95375
3552.65622	0.95382
3551.23856	0.95376
3549.82090	0.95331
3548.40324	0.95244
3546.98558	0.95156
3545.56792	0.95118
3544.15026	0.95134
3542.73260	0.95160
3541.31494	0.95162
3539.89728	0.95147
3538.47962	0.95139
3537.06196	0.95142
3535.64430	0.95141
3534.22664	0.95115
3532.80898	0.95051
3531.39132	0.94975
3529.97366	0.94930
3528.55600	0.94930
3527.13834	0.94944
3525.72068	0.94936
3524.30302	0.94892
3522.88536	0.94817
3521.46770	0.94740
3520.05004	0.94692
3518.63238	0.94675
3517.21472	0.94664
3515.79706	0.94650
3514.37940	0.94650
3512.96174	0.94661
3511.54408	0.94668
3510.12642	0.94669
3508.70876	0.94679
3507.29110	0.94703
3505.87344	0.94718
3504.45578	0.94707
3503.03812	0.94678
3501.62046	0.94666
3500.20280	0.94690
3498.78514	0.94730
3497.36748	0.94749
3495.94982	0.94740
3494.53216	0.94714
3493.11450	0.94684
3491.69684	0.94649
3490.27918	0.94608
3488.86152	0.94568
3487.44386	0.94535
3486.02620	0.94507
3484.60854	0.94490
3483.19088	0.94491
3481.77322	0.94502
3480.35556	0.94507
3478.93790	0.94503
3477.52024	0.94504
3476.10258	0.94504
3474.68492	0.94479
3473.26726	0.94420
3471.84960	0.94346
3470.43194	0.94289
3469.01428	0.94260
3467.59662	0.94237
3466.17896	0.94194
3464.76130	0.94134
3463.34364	0.94085
3461.92598	0.94069
3460.50832	0.94080
3459.09066	0.94097
3457.67300	0.94100
3456.25534	0.94073
3454.83767	0.94010
3453.42001	0.93933
3452.00235	0.93872
3450.58469	0.93842
3449.16703	0.93834
3447.74937	0.93835
3446.33171	0.93831
3444.91405	0.93796
3443.49639	0.93712
3442.07873	0.93599
3440.66107	0.93500
3439.24341	0.93431
3437.82575	0.93379
3436.40809	0.93335
3434.99043	0.93305
3433.57277	0.93294
3432.15511	0.93293
3430.73745	0.93279
3429.31979	0.93233
3427.90213	0.93150
3426.48447	0.93048
3425.06681	0.92944
3423.64915	0.92848
3422.23149	0.92762
3420.81383	0.92695
3419.39617	0.92640
3417.97851	0.92575
3416.56085	0.92493
3415.14319	0.92412
3413.72553	0.92339
3412.30787	0.92261
3410.89021	0.92182
3409.47255	0.92127
3408.05489	0.92104
3406.63723	0.92090
3405.21957	0.92062
3403.80191	0.92014
3402.38425	0.91947
3400.96659	0.91860
3399.54893	0.91761
3398.13127	0.91678
3396.71361	0.91637
3395.29595	0.91631
3393.87829	0.91618
3392.46063	0.91560
3391.04297	0.91467
3389.62531	0.91374
3388.20765	0.91299
3386.78999	0.91235
3385.37233	0.91162
3383.95467	0.91056
3382.53701	0.90913
3381.11935	0.90763
3379.70169	0.90650
3378.28403	0.90584
3376.86637	0.90532
3375.44871	0.90462
3374.03105	0.90374
3372.61339	0.90281
3371.19573	0.90189
3369.77807	0.90093
3368.36041	0.89988
3366.94275	0.89869
3365.52509	0.89748
3364.10743	0.89644
3362.68977	0.89555
3361.27211	0.89447
3359.85445	0.89302
3358.43679	0.89144
3357.01913	0.89006
3355.60147	0.88888
3354.18381	0.88765
3352.76615	0.88630
3351.34849	0.88484
3349.93083	0.88326
3348.51317	0.88168
3347.09551	0.88044
3345.67785	0.87973
3344.26019	0.87912
3342.84253	0.87799
3341.42487	0.87619
3340.00721	0.87420
3338.58955	0.87256
3337.17189	0.87139
3335.75423	0.87050
3334.33657	0.86955
3332.91891	0.86837
3331.50125	0.86698
3330.08359	0.86557
3328.66593	0.86422
3327.24827	0.86292
3325.83061	0.86175
3324.41295	0.86078
3322.99529	0.85995
3321.57763	0.85910
3320.15997	0.85818
3318.74230	0.85723
3317.32464	0.85626
3315.90698	0.85530
3314.48932	0.85440
3313.07166	0.85360
3311.65400	0.85286
3310.23634	0.85200
3308.81868	0.85081
3307.40102	0.84931
3305.98336	0.84793
3304.56570	0.84696
3303.14804	0.84624
3301.73038	0.84542
3300.31272	0.84441
3298.89506	0.84337
3297.47740	0.84237
3296.05974	0.84133
3294.64208	0.84037
3293.22442	0.83983
3291.80676	0.83998
3290.38910	0.84074
3288.97144	0.84181
3287.55378	0.84279
3286.13612	0.84340
3284.71846	0.84366
3283.30080	0.84382
3281.88314	0.84403
3280.46548	0.84430
3279.04782	0.84467
3277.63016	0.84520
3276.21250	0.84583
3274.79484	0.84636
3273.37718	0.84671
3271.95952	0.84698
3270.54186	0.84738
3269.12420	0.84798
3267.70654	0.84876
3266.28888	0.84971
3264.87122	0.85078
3263.45356	0.85172
3262.03590	0.85230
3260.61824	0.85259
3259.20058	0.85296
3257.78292	0.85358
3256.36526	0.85428
3254.94760	0.85491
3253.52994	0.85562
3252.11228	0.85659
3250.69462	0.85782
3249.27696	0.85918
3247.85930	0.86047
3246.44164	0.86150
3245.02398	0.86213
3243.60632	0.86254
3242.18866	0.86311
3240.77100	0.86405
3239.35334	0.86520
3237.93568	0.86630
3236.51802	0.86731
3235.10036	0.86825
3233.68270	0.86905
3232.26504	0.86960
3230.84738	0.86996
3229.42972	0.87021
3228.01206	0.87045
3226.59440	0.87093
3225.17674	0.87187
3223.75908	0.87308
3222.34142	0.87413
3220.92376	0.87480
3219.50610	0.87525
3218.08844	0.87572
3216.67078	0.87639
3215.25312	0.87726
3213.83546	0.87808
3212.41780	0.87862
3211.00014	0.87901
3209.58248	0.87952
3208.16482	0.88021
3206.74716	0.88090
3205.32950	0.88147
3203.91184	0.88194
3202.49418	0.88235
3201.07652	0.88265
3199.65886	0.88280
3198.24120	0.88293
3196.82354	0.88330
3195.40588	0.88405
3193.98822	0.88511
3192.57056	0.88627
3191.15290	0.88727
3189.73524	0.88795
3188.31758	0.88834
3186.89992	0.88854
3185.48226	0.88854
3184.06459	0.88843
3182.64693	0.88846
3181.22927	0.88877
3179.81161	0.88920
3178.39395	0.88953
3176.97629	0.88985
3175.55863	0.89044
3174.14097	0.89133
3172.72331	0.89217
3171.30565	0.89263
3169.88799	0.89269
3168.47033	0.89262
3167.05267	0.89267
3165.63501	0.89296
3164.21735	0.89348
3162.79969	0.89408
3161.38203	0.89459
3159.96437	0.89502
3158.54671	0.89544
3157.12905	0.89582
3155.71139	0.89599
3154.29373	0.89598
3152.87607	0.89601
3151.45841	0.89642
3150.04075	0.89738
3148.62309	0.89876
3147.20543	0.90013
3145.78777	0.90105
3144.37011	0.90155
3142.95245	0.90203
3141.53479	0.90277
3140.11713	0.90359
3138.69947	0.90419
3137.28181	0.90453
3135.86415	0.90482
3134.44649	0.90529
3133.02883	0.90603
3131.61117	0.90689
3130.19351	0.90749
3128.77585	0.90768
3127.35819	0.90770
3125.94053	0.90793
3124.52287	0.90864
3123.10521	0.90978
3121.68755	0.91100
3120.26989	0.91186
3118.85223	0.91233
3117.43457	0.91272
3116.01691	0.91322
3114.59925	0.91366
3113.18159	0.91391
3111.76393	0.91414
3110.34627	0.91462
3108.92861	0.91531
3107.51095	0.91589
3106.09329	0.91620
3104.67563	0.91633
3103.25797	0.91634
3101.84031	0.91614
3100.42265	0.91573
3099.00499	0.91534
3097.58733	0.91525
3096.16967	0.91556
3094.75201	0.91623
3093.33435	0.91716
3091.91669	0.91822
3090.49903	0.91931
3089.08137	0.92029
3087.66371	0.92102
3086.24605	0.92135
3084.82839	0.92134
3083.41073	0.92123
3081.99307	0.92124
3080.57541	0.92140
3079.15775	0.92168
3077.74009	0.92206
3076.32243	0.92231
3074.90477	0.92197
3073.48711	0.92068
3072.06945	0.91844
3070.65179	0.91574
3069.23413	0.91329
3067.81647	0.91153
3066.39881	0.91022
3064.98115	0.90880
3063.56349	0.90710
3062.14583	0.90557
3060.72817	0.90463
3059.31051	0.90414
3057.89285	0.90368
3056.47519	0.90330
3055.05753	0.90366
3053.63987	0.90538
3052.22221	0.90847
3050.80455	0.91229
3049.38689	0.91604
3047.96922	0.91917
3046.55156	0.92156
3045.13390	0.92331
3043.71624	0.92449
3042.29858	0.92517
3040.88092	0.92543
3039.46326	0.92528
3038.04560	0.92478
3036.62794	0.92416
3035.21028	0.92378
3033.79262	0.92386
3032.37496	0.92433
3030.95730	0.92480
3029.53964	0.92491
3028.12198	0.92459
3026.70432	0.92411
3025.28666	0.92382
3023.86900	0.92412
3022.45134	0.92532
3021.03368	0.92726
3019.61602	0.92928
3018.19836	0.93075
3016.78070	0.93154
3015.36304	0.93190
3013.94538	0.93214
3012.52772	0.93245
3011.11006	0.93286
3009.69240	0.93321
3008.27474	0.93331
3006.85708	0.93320
3005.43942	0.93317
3004.02176	0.93343
3002.60410	0.93380
3001.18644	0.93396
2999.76878	0.93386
2998.35112	0.93358
2996.93346	0.93303
2995.51580	0.93210
2994.09814	0.93088
2992.68048	0.92955
2991.26282	0.92810
2989.84516	0.92651
2988.42750	0.92491
2987.00984	0.92354
2985.59218	0.92239
2984.17452	0.92116
2982.75686	0.91966
2981.33920	0.91802
2979.92154	0.91643
2978.50388	0.91489
2977.08622	0.91318
2975.66856	0.91106
2974.25090	0.90830
2972.83324	0.90479
2971.41558	0.90062
2969.99792	0.89599
2968.58026	0.89114
2967.16260	0.88631
2965.74494	0.88174
2964.32728	0.87756
2962.90962	0.87375
2961.49196	0.87025
2960.07430	0.86687
2958.65664	0.86317
2957.23898	0.85862
2955.82132	0.85300
2954.40366	0.84654
2952.98600	0.83981
2951.56834	0.83345
2950.15068	0.82807
2948.73302	0.82395
2947.31536	0.82099
2945.89770	0.81892
2944.48004	0.81750
2943.06238	0.81618
2941.64472	0.81398
2940.22706	0.80982
2938.80940	0.80300
2937.39174	0.79322
2935.97408	0.78049
2934.55642	0.76513
2933.13876	0.74788
2931.72110	0.72986
2930.30344	0.71240
2928.88578	0.69690
2927.46812	0.68420
2926.05046	0.67387
2924.63280	0.66422
2923.21514	0.65280
2921.79748	0.63703
2920.37982	0.61472
2918.96216	0.58534
2917.54450	0.55141
2916.12684	0.51896
2914.70918	0.49550
2913.29151	0.48672
2911.87385	0.49389
2910.45619	0.51370
2909.03853	0.54040
2907.62087	0.56854
2906.20321	0.59464
2904.78555	0.61738
2903.36789	0.63682
2901.95023	0.65356
2900.53257	0.66827
2899.11491	0.68148
2897.69725	0.69351
2896.27959	0.70443
2894.86193	0.71414
2893.44427	0.72262
2892.02661	0.73006
2890.60895	0.73672
2889.19129	0.74272
2887.77363	0.74814
2886.35597	0.75308
2884.93831	0.75767
2883.52065	0.76199
2882.10299	0.76617
2880.68533	0.77037
2879.26767	0.77470
2877.85001	0.77914
2876.43235	0.78352
2875.01469	0.78753
2873.59703	0.79082
2872.17937	0.79316
2870.76171	0.79442
2869.34405	0.79460
2867.92639	0.79384
2866.50873	0.79246
2865.09107	0.79072
2863.67341	0.78868
2862.25575	0.78602
2860.83809	0.78199
2859.42043	0.77555
2858.00277	0.76564
2856.58511	0.75128
2855.16745	0.73171
2853.74979	0.70653
2852.33213	0.67608
2850.91447	0.64267
2849.49681	0.61236
2848.07915	0.59422
2846.66149	0.59557
2845.24383	0.61665
2843.82617	0.65043
2842.40851	0.68767
2840.99085	0.72180
2839.57319	0.75014
2838.15553	0.77257
2836.73787	0.79009
2835.32021	0.80397
2833.90255	0.81520
2832.48489	0.82444
2831.06723	0.83218
2829.64957	0.83884
2828.23191	0.84467
2826.81425	0.84978
2825.39659	0.85430
2823.97893	0.85837
2822.56127	0.86207
2821.14361	0.86544
2819.72595	0.86863
2818.30829	0.87189
2816.89063	0.87524
2815.47297	0.87839
2814.05531	0.88106
2812.63765	0.88324
2811.21999	0.88510
2809.80233	0.88674
2808.38467	0.88824
2806.96701	0.88966
2805.54935	0.89104
2804.13169	0.89234
2802.71403	0.89357
2801.29637	0.89480
2799.87871	0.89606
2798.46105	0.89740
2797.04339	0.89877
2795.62573	0.89999
2794.20807	0.90090
2792.79041	0.90155
2791.37275	0.90219
2789.95509	0.90287
2788.53743	0.90349
2787.11977	0.90404
2785.70211	0.90463
2784.28445	0.90529
2782.86679	0.90597
2781.44913	0.90662
2780.03147	0.90721
2778.61381	0.90776
2777.19614	0.90830
2775.77848	0.90888
2774.36082	0.90946
2772.94316	0.91001
2771.52550	0.91049
2770.10784	0.91087
2768.69018	0.91113
2767.27252	0.91130
2765.85486	0.91145
2764.43720	0.91162
2763.01954	0.91188
2761.60188	0.91224
2760.18422	0.91264
2758.76656	0.91296
2757.34890	0.91323
2755.93124	0.91355
2754.51358	0.91392
2753.09592	0.91423
2751.67826	0.91444
2750.26060	0.91460
2748.84294	0.91486
2747.42528	0.91528
2746.00762	0.91579
2744.58996	0.91628
2743.17230	0.91666
2741.75464	0.91686
2740.33698	0.91695
2738.91932	0.91711
2737.50166	0.91749
2736.08400	0.91809
2734.66634	0.91874
2733.24868	0.91934
2731.83102	0.91988
2730.41336	0.92039
2728.99570	0.92085
2727.57804	0.92116
2726.16038	0.92123
2724.74272	0.92115
2723.32506	0.92120
2721.90740	0.92155
2720.48974	0.92217
2719.07208	0.92287
2717.65442	0.92348
2716.23676	0.92388
2714.81910	0.92408
2713.40144	0.92417
2711.98378	0.92433
2710.56612	0.92462
2709.14846	0.92506
2707.73080	0.92560
2706.31314	0.92611
2704.89548	0.92647
2703.47782	0.92663
2702.06016	0.92669
2700.64250	0.92672
2699.22484	0.92670
2697.80718	0.92664
2696.38952	0.92668
2694.97186	0.92699
2693.55420	0.92762
2692.13654	0.92836
2690.71888	0.92887
2689.30122	0.92892
2687.88356	0.92862
2686.46590	0.92826
2685.04824	0.92801
2683.63058	0.92784
2682.21292	0.92767
2680.79526	0.92753
2679.37760	0.92761
2677.95994	0.92798
2676.54228	0.92844
2675.12462	0.92876
2673.70696	0.92896
2672.28930	0.92921
2670.87164	0.92957
2669.45398	0.92991
2668.03632	0.93004
2666.61866	0.92995
2665.20100	0.92972
2663.78334	0.92954
2662.36568	0.92945
2660.94802	0.92941
2659.53036	0.92929
2658.11270	0.92912
2656.69504	0.92912
2655.27738	0.92942
2653.85972	0.92995
2652.44206	0.93055
2651.02440	0.93118
2649.60674	0.93173
2648.18908	0.93208
2646.77142	0.93221
2645.35376	0.93230
2643.93610	0.93234
2642.51844	0.93218
2641.10077	0.93185
2639.68311	0.93165
2638.26545	0.93177
2636.84779	0.93212
2635.43013	0.93258
2634.01247	0.93314
2632.59481	0.93371
2631.17715	0.93413
2629.75949	0.93428
2628.34183	0.93421
2626.92417	0.93415
2625.50651	0.93431
2624.08885	0.93466
2622.67119	0.93498
2621.25353	0.93514
2619.83587	0.93515
2618.41821	0.93508
2617.00055	0.93501
2615.58289	0.93487
2614.16523	0.93460
2612.74757	0.93426
2611.32991	0.93416
2609.91225	0.93457
2608.49459	0.93554
2607.07693	0.93684
2605.65927	0.93804
2604.24161	0.93882
2602.82395	0.93907
2601.40629	0.93890
2599.98863	0.93849
2598.57097	0.93801
2597.15331	0.93756
2595.73565	0.93726
2594.31799	0.93722
2592.90033	0.93735
2591.48267	0.93744
2590.06501	0.93751
2588.64735	0.93770
2587.22969	0.93802
2585.81203	0.93837
2584.39437	0.93875
2582.97671	0.93937
2581.55905	0.94044
2580.14139	0.94183
2578.72373	0.94298
2577.30607	0.94335
2575.88841	0.94303
2574.47075	0.94243
2573.05309	0.94164
2571.63543	0.94058
2570.21777	0.93954
2568.80011	0.93908
2567.38245	0.93931
2565.96479	0.93983
2564.54713	0.94044
2563.12947	0.94131
2561.71181	0.94246
2560.29415	0.94350
2558.87649	0.94407
2557.45883	0.94421
2556.04117	0.94428
2554.62351	0.94454
2553.20585	0.94491
2551.78819	0.94506
2550.37053	0.94487
2548.95287	0.94465
2547.53521	0.94484
2546.11755	0.94552
2544.69989	0.94635
2543.28223	0.94697
2541.86457	0.94724
2540.44691	0.94717
2539.02925	0.94678
2537.61159	0.94613
2536.19393	0.94555
2534.77627	0.94548
2533.35861	0.94601
2531.94095	0.94664
2530.52329	0.94685
2529.10563	0.94662
2527.68797	0.94634
2526.27031	0.94616
2524.85265	0.94587
2523.43499	0.94535
2522.01733	0.94481
2520.59967	0.94458
2519.18201	0.94492
2517.76435	0.94586
2516.34669	0.94716
2514.92903	0.94838
2513.51137	0.94911
2512.09371	0.94922
2510.67605	0.94890
2509.25839	0.94849
2507.84073	0.94823
2506.42306	0.94820
2505.00540	0.94837
2503.58774	0.94859
2502.17008	0.94867
2500.75242	0.94847
2499.33476	0.94817
2497.91710	0.94804
2496.49944	0.94815
2495.08178	0.94828
2493.66412	0.94816
2492.24646	0.94773
2490.82880	0.94734
2489.41114	0.94740
2487.99348	0.94793
2486.57582	0.94851
2485.15816	0.94880
2483.74050	0.94897
2482.32284	0.94938
2480.90518	0.94994
2479.48752	0.95012
2478.06986	0.94973
2476.65220	0.94930
2475.23454	0.94952
2473.81688	0.95041
2472.39922	0.95125
2470.98156	0.95141
2469.56390	0.95099
2468.14624	0.95055
2466.72858	0.95035
2465.31092	0.95012
2463.89326	0.94973
2462.47560	0.94937
2461.05794	0.94925
2459.64028	0.94922
2458.22262	0.94913
2456.80496	0.94907
2455.38730	0.94916
2453.96964	0.94937
2452.55198	0.94951
2451.13432	0.94952
2449.71666	0.94952
2448.29900	0.94957
2446.88134	0.94973
2445.46368	0.94996
2444.04602	0.95016
2442.62836	0.95018
2441.21070	0.95004
2439.79304	0.94981
2438.37538	0.94958
2436.95772	0.94945
2435.54006	0.94943
2434.12240	0.94932
2432.70474	0.94891
2431.28708	0.94830
2429.86942	0.94774
2428.45176	0.94733
2427.03410	0.94706
2425.61644	0.94699
2424.19878	0.94716
2422.78112	0.94745
2421.36346	0.94762
2419.94580	0.94760
2418.52814	0.94758
2417.11048	0.94781
2415.69282	0.94823
2414.27516	0.94851
2412.85750	0.94846
2411.43984	0.94828
2410.02218	0.94834
2408.60452	0.94876
2407.18686	0.94933
2405.76920	0.94981
2404.35154	0.95015
2402.93388	0.95041
2401.51622	0.95046
2400.09856	0.95014
2398.68090	0.94956
2397.26324	0.94904
2395.84558	0.94875
2394.42792	0.94877
2393.01026	0.94911
2391.59260	0.94958
2390.17494	0.94989
2388.75728	0.95000
2387.33962	0.95009
2385.92196	0.95027
2384.50430	0.95049
2383.08664	0.95059
2381.66898	0.95055
2380.25132	0.95049
2378.83366	0.95063
2377.41600	0.95110
2375.99834	0.95171
2374.58068	0.95206
2373.16302	0.95177
2371.74536	0.95080
2370.32769	0.94955
2368.91003	0.94857
2367.49237	0.94814
2366.07471	0.94832
2364.65705	0.94910
2363.23939	0.95026
2361.82173	0.95124
2360.40407	0.95141
2358.98641	0.95085
2357.56875	0.95039
2356.15109	0.95061
2354.73343	0.95106
2353.31577	0.95110
2351.89811	0.95080
2350.48045	0.95051
2349.06279	0.95025
2347.64513	0.94992
2346.22747	0.94961
2344.80981	0.94967
2343.39215	0.95025
2341.97449	0.95106
2340.55683	0.95151
2339.13917	0.95124
2337.72151	0.95042
2336.30385	0.94954
2334.88619	0.94893
2333.46853	0.94867
2332.05087	0.94882
2330.63321	0.94919
2329.21555	0.94940
2327.79789	0.94918
2326.38023	0.94864
2324.96257	0.94797
2323.54491	0.94734
2322.12725	0.94693
2320.70959	0.94695
2319.29193	0.94727
2317.87427	0.94758
2316.45661	0.94766
2315.03895	0.94755
2313.62129	0.94751
2312.20363	0.94773
2310.78597	0.94820
2309.36831	0.94884
2307.95065	0.94965
2306.53299	0.95056
2305.11533	0.95124
2303.69767	0.95140
2302.28001	0.95123
2300.86235	0.95111
2299.44469	0.95118
2298.02703	0.95123
2296.60937	0.95104
2295.19171	0.95058
2293.77405	0.95005
2292.35639	0.94965
2290.93873	0.94941
2289.52107	0.94920
2288.10341	0.94901
2286.68575	0.94908
2285.26809	0.94947
2283.85043	0.94994
2282.43277	0.95024
2281.01511	0.95035
2279.59745	0.95043
2278.17979	0.95056
2276.76213	0.95078
2275.34447	0.95110
2273.92681	0.95159
2272.50915	0.95226
2271.09149	0.95306
2269.67383	0.95380
2268.25617	0.95421
2266.83851	0.95411
2265.42085	0.95351
2264.00319	0.95274
2262.58553	0.95243
2261.16787	0.95279
2259.75021	0.95323
2258.33255	0.95324
2256.91489	0.95344
2255.49723	0.95491
2254.07957	0.95756
2252.66191	0.95982
2251.24425	0.96022
2249.82659	0.95898
2248.40893	0.95765
2246.99127	0.95750
2245.57361	0.95842
2244.15595	0.95945
2242.73829	0.95971
2241.32063	0.95898
2239.90297	0.95752
2238.48531	0.95597
2237.06765	0.95503
2235.64998	0.95513
2234.23232	0.95609
2232.81466	0.95719
2231.39700	0.95772
2229.97934	0.95763
2228.56168	0.95740
2227.14402	0.95746
2225.72636	0.95786
2224.30870	0.95852
2222.89104	0.95914
2221.47338	0.95930
2220.05572	0.95881
2218.63806	0.95809
2217.22040	0.95790
2215.80274	0.95872
2214.38508	0.96022
2212.96742	0.96163
2211.54976	0.96274
2210.13210	0.96381
2208.71444	0.96450
2207.29678	0.96410
2205.87912	0.96291
2204.46146	0.96208
2203.04380	0.96204
2201.62614	0.96196
2200.20848	0.96092
2198.79082	0.95881
2197.37316	0.95640
2195.95550	0.95460
2194.53784	0.95385
2193.12018	0.95411
2191.70252	0.95519
2190.28486	0.95666
2188.86720	0.95783
2187.44954	0.95820
2186.03188	0.95801
2184.61422	0.95801
2183.19656	0.95880
2181.77890	0.96037
2180.36124	0.96188
2178.94358	0.96236
2177.52592	0.96169
2176.10826	0.96062
2174.69060	0.95991
2173.27294	0.95997
2171.85528	0.96084
2170.43762	0.96189
2169.01996	0.96192
2167.60230	0.96041
2166.18464	0.95842
2164.76698	0.95729
2163.34932	0.95704
2161.93166	0.95701
2160.51400	0.95776
2159.09634	0.96067
2157.67868	0.96534
2156.26102	0.96934
2154.84336	0.97075
2153.42570	0.96957
2152.00804	0.96707
2150.59038	0.96508
2149.17272	0.96510
2147.75506	0.96722
2146.33740	0.97012
2144.91974	0.97227
2143.50208	0.97311
2142.08442	0.97266
2140.66676	0.97082
2139.24910	0.96777
2137.83144	0.96465
2136.41378	0.96295
2134.99612	0.96309
2133.57846	0.96411
2132.16080	0.96469
2130.74314	0.96436
2129.32548	0.96360
2127.90782	0.96313
2126.49016	0.96314
2125.07250	0.96316
2123.65484	0.96263
2122.23718	0.96142
2120.81952	0.95993
2119.40186	0.95891
2117.98420	0.95895
2116.56654	0.95979
2115.14888	0.96047
2113.73122	0.96035
2112.31356	0.95972
2110.89590	0.95918
2109.47824	0.95903
2108.06058	0.95928
2106.64292	0.95978
2105.22526	0.96026
2103.80760	0.96052
2102.38994	0.96053
2100.97228	0.96033
2099.55461	0.95976
2098.13695	0.95874
2096.71929	0.95776
2095.30163	0.95753
2093.88397	0.95806
2092.46631	0.95848
2091.04865	0.95812
2089.63099	0.95723
2088.21333	0.95650
2086.79567	0.95633
2085.37801	0.95653
2083.96035	0.95667
2082.54269	0.95667
2081.12503	0.95699
2079.70737	0.95812
2078.28971	0.95975
2076.87205	0.96089
2075.45439	0.96069
2074.03673	0.95935
2072.61907	0.95799
2071.20141	0.95755
2069.78375	0.95771
2068.36609	0.95745
2066.94843	0.95659
2065.53077	0.95596
2064.11311	0.95599
2062.69545	0.95635
2061.27779	0.95693
2059.86013	0.95795
2058.44247	0.95918
2057.02481	0.96005
2055.60715	0.96035
2054.18949	0.96010
2052.77183	0.95926
2051.35417	0.95821
2049.93651	0.95776
2048.51885	0.95817
2047.10119	0.95874
2045.68353	0.95872
2044.26587	0.95855
2042.84821	0.95952
2041.43055	0.96206
2040.01289	0.96468
2038.59523	0.96528
2037.17757	0.96354
2035.75991	0.96134
2034.34225	0.96066
2032.92459	0.96184
2031.50693	0.96394
2030.08927	0.96592
2028.67161	0.96688
2027.25395	0.96607
2025.83629	0.96377
2024.41863	0.96161
2023.00097	0.96107
2021.58331	0.96230
2020.16565	0.96451
2018.74799	0.96688
2017.33033	0.96856
2015.91267	0.96888
2014.49501	0.96777
2013.07735	0.96554
2011.65969	0.96266
2010.24203	0.96037
2008.82437	0.96035
2007.40671	0.96281
2005.98905	0.96567
2004.57139	0.96671
2003.15373	0.96566
2001.73607	0.96401
2000.31841	0.96325
1998.90075	0.96358
1997.48309	0.96409
1996.06543	0.96396
1994.64777	0.96338
1993.23011	0.96315
1991.81245	0.96361
1990.39479	0.96420
1988.97713	0.96408
1987.55947	0.96304
1986.14181	0.96150
1984.72415	0.95994
1983.30649	0.95841
1981.88883	0.95683
1980.47117	0.95556
1979.05351	0.95572
1977.63585	0.95830
1976.21819	0.96259
1974.80053	0.96618
1973.38287	0.96734
1971.96521	0.96636
1970.54755	0.96475
1969.12989	0.96388
1967.71223	0.96386
1966.29457	0.96354
1964.87690	0.96210
1963.45924	0.96016
1962.04158	0.95870
1960.62392	0.95776
1959.20626	0.95688
1957.78860	0.95595
1956.37094	0.95517
1954.95328	0.95466
1953.53562	0.95450
1952.11796	0.95485
1950.70030	0.95575
1949.28264	0.95689
1947.86498	0.95772
1946.44732	0.95797
1945.02966	0.95777
1943.61200	0.95750
1942.19434	0.95765
1940.77668	0.95838
1939.35902	0.95920
1937.94136	0.95955
1936.52370	0.95962
1935.10604	0.95989
1933.68838	0.96016
1932.27072	0.95990
1930.85306	0.95926
1929.43540	0.95893
1928.01774	0.95921
1926.60008	0.95967
1925.18242	0.95965
1923.76476	0.95896
1922.34710	0.95819
1920.92944	0.95802
1919.51178	0.95826
1918.09412	0.95821
1916.67646	0.95773
1915.25880	0.95746
1913.84114	0.95777
1912.42348	0.95849
1911.00582	0.95929
1909.58816	0.95997
1908.17050	0.96030
1906.75284	0.96030
1905.33518	0.96017
1903.91752	0.95999
1902.49986	0.95972
1901.08220	0.95946
1899.66454	0.95941
1898.24688	0.95954
1896.82922	0.95976
1895.41156	0.96008
1893.99390	0.96047
1892.57624	0.96097
1891.15858	0.96161
1889.74092	0.96230
1888.32326	0.96276
1886.90560	0.96286
1885.48794	0.96280
1884.07028	0.96283
1882.65262	0.96293
1881.23496	0.96290
1879.81730	0.96267
1878.39964	0.96243
1876.98198	0.96241
1875.56432	0.96275
1874.14666	0.96333
1872.72900	0.96376
1871.31134	0.96379
1869.89368	0.96369
1868.47602	0.96386
1867.05836	0.96417
1865.64070	0.96413
1864.22304	0.96372
1862.80538	0.96338
1861.38772	0.96346
1859.97006	0.96387
1858.55240	0.96421
1857.13474	0.96418
1855.71708	0.96381
1854.29942	0.96328
1852.88176	0.96272
1851.46410	0.96221
1850.04644	0.96189
1848.62878	0.96183
1847.21112	0.96186
1845.79346	0.96153
1844.37580	0.96064
1842.95814	0.95966
1841.54048	0.95913
1840.12282	0.95888
1838.70516	0.95852
1837.28750	0.95801
1835.86984	0.95760
1834.45218	0.95736
1833.03452	0.95704
1831.61686	0.95651
1830.19920	0.95594
1828.78153	0.95554
1827.36387	0.95504
1825.94621	0.95402
1824.52855	0.95256
1823.11089	0.95124
1821.69323	0.95069
1820.27557	0.95122
1818.85791	0.95268
1817.44025	0.95449
1816.02259	0.95607
1814.60493	0.95723
1813.18727	0.95810
1811.76961	0.95874
1810.35195	0.95907
1808.93429	0.95911
1807.51663	0.95914
1806.09897	0.95940
1804.68131	0.95985
1803.26365	0.96028
1801.84599	0.96041
1800.42833	0.96008
1799.01067	0.95936
1797.59301	0.95851
1796.17535	0.95767
1794.75769	0.95692
1793.34003	0.95642
1791.92237	0.95633
1790.50471	0.95647
1789.08705	0.95654
1787.66939	0.95640
1786.25173	0.95608
1784.83407	0.95571
1783.41641	0.95535
1781.99875	0.95498
1780.58109	0.95469
1779.16343	0.95462
1777.74577	0.95471
1776.32811	0.95482
1774.91045	0.95490
1773.49279	0.95493
1772.07513	0.95487
1770.65747	0.95479
1769.23981	0.95479
1767.82215	0.95479
1766.40449	0.95472
1764.98683	0.95458
1763.56917	0.95437
1762.15151	0.95408
1760.73385	0.95364
1759.31619	0.95305
1757.89853	0.95249
1756.48087	0.95209
1755.06321	0.95190
1753.64555	0.95182
1752.22789	0.95163
1750.81023	0.95094
1749.39257	0.94963
1747.97491	0.94817
1746.55725	0.94694
1745.13959	0.94588
1743.72193	0.94485
1742.30427	0.94371
1740.88661	0.94228
1739.46895	0.94056
1738.05129	0.93869
1736.63363	0.93654
1735.21597	0.93362
1733.79831	0.92942
1732.38065	0.92394
1730.96299	0.91716
1729.54533	0.90785
1728.12767	0.89393
1726.71001	0.87299
1725.29235	0.84175
1723.87469	0.79749
1722.45703	0.74220
1721.03937	0.68165
1719.62171	0.61982
1718.20405	0.55992
1716.78639	0.50951
1715.36873	0.47614
1713.95107	0.46094
1712.53341	0.46516
1711.11575	0.49249
1709.69809	0.54146
1708.28043	0.60290
1706.86277	0.66589
1705.44511	0.72098
1704.02745	0.76201
1702.60979	0.79063
1701.19213	0.81389
1699.77447	0.83552
1698.35681	0.85304
1696.93915	0.86593
1695.52149	0.87683
1694.10383	0.88596
1692.68616	0.89245
1691.26850	0.89718
1689.85084	0.90115
1688.43318	0.90441
1687.01552	0.90694
1685.59786	0.90893
1684.18020	0.91011
1682.76254	0.91019
1681.34488	0.90940
1679.92722	0.90822
1678.50956	0.90709
1677.09190	0.90619
1675.67424	0.90546
1674.25658	0.90515
1672.83892	0.90558
1671.42126	0.90652
1670.00360	0.90741
1668.58594	0.90733
1667.16828	0.90526
1665.75062	0.90056
1664.33296	0.89192
1662.91530	0.87691
1661.49764	0.85362
1660.07998	0.82099
1658.66232	0.77828
1657.24466	0.72676
1655.82700	0.66706
1654.40934	0.59497
1652.99168	0.51824
1651.57402	0.47426
1650.15636	0.47692
1648.73870	0.51036
1647.32104	0.56469
1645.90338	0.62799
1644.48572	0.68177
1643.06806	0.72054
1641.65040	0.75020
1640.23274	0.77484
1638.81508	0.79564
1637.39742	0.81418
1635.97976	0.83226
1634.56210	0.84878
1633.14444	0.86102
1631.72678	0.86943
1630.30912	0.87607
1628.89146	0.88195
1627.47380	0.88666
1626.05614	0.88934
1624.63848	0.88958
1623.22082	0.88829
1621.80316	0.88770
1620.38550	0.88913
1618.96784	0.89206
1617.55018	0.89554
1616.13252	0.89849
1614.71486	0.89981
1613.29720	0.89939
1611.87954	0.89808
1610.46188	0.89705
1609.04422	0.89720
1607.62656	0.89847
1606.20890	0.89933
1604.79124	0.89717
1603.37358	0.88918
1601.95592	0.87366
1600.53826	0.85236
1599.12060	0.83144
1597.70294	0.81871
1596.28528	0.81903
1594.86762	0.83132
1593.44996	0.84977
1592.03230	0.86809
1590.61464	0.88290
1589.19698	0.89374
1587.77932	0.90150
1586.36166	0.90655
1584.94400	0.90768
1583.52634	0.90305
1582.10868	0.89335
1580.69102	0.88288
1579.27336	0.87616
1577.85570	0.87474
1576.43804	0.87754
1575.02038	0.88225
1573.60272	0.88693
1572.18506	0.89118
1570.76740	0.89523
1569.34974	0.89905
1567.93208	0.90252
1566.51442	0.90593
1565.09676	0.90956
1563.67910	0.91301
1562.26144	0.91565
1560.84378	0.91746
1559.42612	0.91911
1558.00845	0.92119
1556.59079	0.92323
1555.17313	0.92486
1553.75547	0.92625
1552.33781	0.92749
1550.92015	0.92852
1549.50249	0.92928
1548.08483	0.92978
1546.66717	0.93020
1545.24951	0.93074
1543.83185	0.93141
1542.41419	0.93213
1540.99653	0.93298
1539.57887	0.93395
1538.16121	0.93462
1536.74355	0.93480
1535.32589	0.93474
1533.90823	0.93474
1532.49057	0.93496
1531.07291	0.93521
1529.65525	0.93522
1528.23759	0.93490
1526.81993	0.93427
1525.40227	0.93348
1523.98461	0.93272
1522.56695	0.93200
1521.14929	0.93119
1519.73163	0.93039
1518.31397	0.92984
1516.89631	0.92947
1515.47865	0.92901
1514.06099	0.92822
1512.64333	0.92690
1511.22567	0.92492
1509.80801	0.92208
1508.39035	0.91730
1506.97269	0.90849
1505.55503	0.89585
1504.13737	0.88318
1502.71971	0.87285
1501.30205	0.86603
1499.88439	0.86497
1498.46673	0.87157
1497.04907	0.88416
1495.63141	0.89726
1494.21375	0.90636
1492.79609	0.91124
1491.37843	0.91352
1489.96077	0.91413
1488.54311	0.91318
1487.12545	0.91070
1485.70779	0.90676
1484.29013	0.90155
1482.87247	0.89572
1481.45481	0.89016
1480.03715	0.88485
1478.61949	0.87780
1477.20183	0.86587
1475.78417	0.84572
1474.36651	0.81254
1472.94885	0.76350
1471.53119	0.71115
1470.11353	0.68016
1468.69587	0.68169
1467.27821	0.70908
1465.86055	0.74832
1464.44289	0.78341
1463.02523	0.80462
1461.60757	0.81447
1460.18991	0.82029
1458.77225	0.82630
1457.35459	0.83208
1455.93693	0.83439
1454.51927	0.83157
1453.10161	0.82446
1451.68395	0.81475
1450.26629	0.80492
1448.84863	0.79715
1447.43097	0.79268
1446.01331	0.79354
1444.59565	0.80211
1443.17799	0.81761
1441.76033	0.83537
1440.34267	0.85052
1438.92501	0.86178
1437.50735	0.87062
1436.08969	0.87805
1434.67203	0.88380
1433.25437	0.88797
1431.83671	0.89121
1430.41905	0.89383
1429.00139	0.89568
1427.58373	0.89664
1426.16607	0.89681
1424.74841	0.89624
1423.33075	0.89513
1421.91308	0.89381
1420.49542	0.89243
1419.07776	0.89078
1417.66010	0.88855
1416.24244	0.88504
1414.82478	0.87852
1413.40712	0.86640
1411.98946	0.84720
1410.57180	0.82278
1409.15414	0.79809
1407.73648	0.77843
1406.31882	0.76802
1404.90116	0.76972
1403.48350	0.78244
1402.06584	0.80054
1400.64818	0.81846
1399.23052	0.83366
1397.81286	0.84545
1396.39520	0.85402
1394.97754	0.86027
1393.55988	0.86511
1392.14222	0.86892
1390.72456	0.87170
1389.30690	0.87342
1387.88924	0.87411
1386.47158	0.87402
1385.05392	0.87378
1383.63626	0.87405
1382.21860	0.87504
1380.80094	0.87634
1379.38328	0.87737
1377.96562	0.87786
1376.54796	0.87801
1375.13030	0.87827
1373.71264	0.87921
1372.29498	0.88118
1370.87732	0.88408
1369.45966	0.88731
1368.04200	0.89016
1366.62434	0.89208
1365.20668	0.89307
1363.78902	0.89369
1362.37136	0.89458
1360.95370	0.89613
1359.53604	0.89819
1358.11838	0.90032
1356.70072	0.90199
1355.28306	0.90277
1353.86540	0.90246
1352.44774	0.90116
1351.03008	0.89899
1349.61242	0.89601
1348.19476	0.89230
1346.77710	0.88831
1345.35944	0.88478
1343.94178	0.88235
1342.52412	0.88117
1341.10646	0.88088
1339.68880	0.88079
1338.27114	0.88024
1336.85348	0.87883
1335.43582	0.87648
1334.01816	0.87322
1332.60050	0.86924
1331.18284	0.86489
1329.76518	0.86026
1328.34752	0.85462
1326.92986	0.84574
1325.51220	0.83023
1324.09454	0.80580
1322.67688	0.77476
1321.25922	0.74476
1319.84156	0.72483
1318.42390	0.71973
1317.00624	0.72751
1315.58858	0.74193
1314.17092	0.75672
1312.75326	0.76714
1311.33560	0.76966
1309.91794	0.76305
1308.50028	0.75086
1307.08262	0.74068
1305.66496	0.73814
1304.24730	0.74166
1302.82964	0.74458
1301.41198	0.74184
1299.99432	0.73288
1298.57666	0.71884
1297.15900	0.69978
1295.74134	0.67542
1294.32368	0.64690
1292.90602	0.61630
1291.48836	0.58484
1290.07070	0.55290
1288.65304	0.52189
1287.23537	0.49488
1285.81771	0.47469
1284.40005	0.46158
1282.98239	0.45356
1281.56473	0.44866
1280.14707	0.44658
1278.72941	0.44829
1277.31175	0.45410
1275.89409	0.46237
1274.47643	0.47001
1273.05877	0.47466
1271.64111	0.47618
1270.22345	0.47635
1268.80579	0.47736
1267.38813	0.48105
1265.97047	0.48878
1264.55281	0.50086
1263.13515	0.51584
1261.71749	0.53096
1260.29983	0.54369
1258.88217	0.55276
1257.46451	0.55839
1256.04685	0.56180
1254.62919	0.56441
1253.21153	0.56735
1251.79387	0.57141
1250.37621	0.57712
1248.95855	0.58476
1247.54089	0.59445
1246.12323	0.60630
1244.70557	0.62036
1243.28791	0.63631
1241.87025	0.65339
1240.45259	0.67054
1239.03493	0.68672
1237.61727	0.70116
1236.19961	0.71345
1234.78195	0.72345
1233.36429	0.73115
1231.94663	0.73662
1230.52897	0.74029
1229.11131	0.74314
1227.69365	0.74616
1226.27599	0.74962
1224.85833	0.75315
1223.44067	0.75680
1222.02301	0.76167
1220.60535	0.76899
1219.18769	0.77870
1217.77003	0.78927
1216.35237	0.79902
1214.93471	0.80717
1213.51705	0.81386
1212.09939	0.81954
1210.68173	0.82454
1209.26407	0.82895
1207.84641	0.83267
1206.42875	0.83550
1205.01109	0.83730
1203.59343	0.83803
1202.17577	0.83769
1200.75811	0.83651
1199.34045	0.83502
1197.92279	0.83401
1196.50513	0.83421
1195.08747	0.83600
1193.66981	0.83935
1192.25215	0.84372
1190.83449	0.84801
1189.41683	0.85093
1187.99917	0.85127
1186.58151	0.84770
1185.16385	0.83887
1183.74619	0.82495
1182.32853	0.80933
1180.91087	0.79756
1179.49321	0.79337
1178.07555	0.79618
1176.65789	0.80296
1175.24023	0.81148
1173.82257	0.82110
1172.40491	0.83127
1170.98725	0.84061
1169.56959	0.84769
1168.15193	0.85227
1166.73427	0.85522
1165.31661	0.85736
1163.89895	0.85893
1162.48129	0.86022
1161.06363	0.86213
1159.64597	0.86529
1158.22831	0.86879
1156.81065	0.87008
1155.39299	0.86613
1153.97533	0.85474
1152.55767	0.83611
1151.14000	0.81427
1149.72234	0.79624
1148.30468	0.78833
1146.88702	0.79259
1145.46936	0.80604
1144.05170	0.82282
1142.63404	0.83733
1141.21638	0.84675
1139.79872	0.85125
1138.38106	0.85228
1136.96340	0.85070
1135.54574	0.84635
1134.12808	0.83831
1132.71042	0.82554
1131.29276	0.80739
1129.87510	0.78399
1128.45744	0.75673
1127.03978	0.72931
1125.62212	0.70788
1124.20446	0.69800
1122.78680	0.69956
1121.36914	0.70413
1119.95148	0.69912
1118.53382	0.67703
1117.11616	0.64231
1115.69850	0.60861
1114.28084	0.58721
1112.86318	0.57773
1111.44552	0.57035
1110.02786	0.55690
1108.61020	0.53856
1107.19254	0.52386
1105.77488	0.52119
1104.35722	0.53364
1102.93956	0.55865
1101.52190	0.59089
1100.10424	0.62510
1098.68658	0.65748
1097.26892	0.68587
1095.85126	0.70935
1094.43360	0.72784
1093.01594	0.74178
1091.59828	0.75207
1090.18062	0.76012
1088.76296	0.76730
1087.34530	0.77402
1085.92764	0.77928
1084.50998	0.78114
1083.09232	0.77785
1081.67466	0.76912
1080.25700	0.75683
1078.83934	0.74408
1077.42168	0.73287
1076.00402	0.72286
1074.58636	0.71288
1073.16870	0.70339
1071.75104	0.69670
1070.33338	0.69523
1068.91572	0.69969
1067.49806	0.70850
1066.08040	0.71844
1064.66274	0.72614
1063.24508	0.72946
1061.82742	0.72799
1060.40976	0.72252
1058.99210	0.71370
1057.57444	0.70138
1056.15678	0.68571
1054.73912	0.66927
1053.32146	0.65712
1051.90380	0.65423
1050.48614	0.66228
1049.06848	0.67892
1047.65082	0.69982
1046.23316	0.72141
1044.81550	0.74187
1043.39784	0.76045
1041.98018	0.77637
1040.56252	0.78808
1039.14486	0.79349
1037.72720	0.79093
1036.30954	0.78059
1034.89188	0.76472
1033.47422	0.74608
1032.05656	0.72617
1030.63890	0.70544
1029.22124	0.68521
1027.80358	0.66885
1026.38592	0.66064
1024.96826	0.66198
1023.55060	0.66748
1022.13294	0.66756
1020.71528	0.65907
1019.29762	0.65138
1017.87996	0.65727
1016.46230	0.67899
1015.04463	0.70756
1013.62697	0.73359
1012.20931	0.75385
1010.79165	0.76897
1009.37399	0.77937
1007.95633	0.78463
1006.53867	0.78448
1005.12101	0.77898
1003.70335	0.76902
1002.28569	0.75832
1000.86803	0.75359
999.45037	0.75919
998.03271	0.77156
996.61505	0.78196
995.19739	0.78509
993.77973	0.78275
992.36207	0.77953
990.94441	0.77815
989.52675	0.77928
988.10909	0.78310
986.69143	0.78963
985.27377	0.79784
983.85611	0.80565
982.43845	0.81095
981.02079	0.81210
979.60313	0.80771
978.18547	0.79734
976.76781	0.78270
975.35015	0.76752
973.93249	0.75617
972.51483	0.75218
971.09717	0.75732
969.67951	0.77072
968.26185	0.78849
966.84419	0.80498
965.42653	0.81522
964.00887	0.81716
962.59121	0.81214
961.17355	0.80361
959.75589	0.79529
958.33823	0.78945
956.92057	0.78614
955.50291	0.78398
954.08525	0.78195
952.66759	0.78037
951.24993	0.77989
949.83227	0.77978
948.41461	0.77691
946.99695	0.76584
945.57929	0.74088
944.16163	0.70209
942.74397	0.66044
941.32631	0.63280
939.90865	0.62916
938.49099	0.64618
937.07333	0.67211
935.65567	0.69369
934.23801	0.69987
932.82035	0.68724
931.40269	0.66467
929.98503	0.64798
928.56737	0.64713
927.14971	0.65971
925.73205	0.67626
924.31439	0.68924
922.89673	0.69729
921.47907	0.70375
920.06141	0.71235
918.64375	0.72409
917.22609	0.73728
915.80843	0.74961
914.39077	0.75977
912.97311	0.76750
911.55545	0.77298
910.13779	0.77640
908.72013	0.77782
907.30247	0.77710
905.88481	0.77427
904.46715	0.77035
903.04949	0.76753
901.63183	0.76819
900.21417	0.77344
898.79651	0.78261
897.37885	0.79355
895.96119	0.80370
894.54353	0.81120
893.12587	0.81552
891.70821	0.81728
890.29055	0.81762
888.87289	0.81748
887.45523	0.81732
886.03757	0.81717
884.61991	0.81677
883.20225	0.81575
881.78459	0.81385
880.36692	0.81103
878.94926	0.80703
877.53160	0.80054
876.11394	0.78863
874.69628	0.76857
873.27862	0.74188
871.86096	0.71592
870.44330	0.69932
869.02564	0.69599
867.60798	0.70427
866.19032	0.72004
864.77266	0.73875
863.35500	0.75626
861.93734	0.77030
860.51968	0.78066
859.10202	0.78731
857.68436	0.78927
856.26670	0.78578
854.84904	0.77750
853.43138	0.76684
852.01372	0.75751
850.59606	0.75322
849.17840	0.75591
847.76074	0.76498
846.34308	0.77791
844.92542	0.79164
843.50776	0.80386
842.09010	0.81357
840.67244	0.82072
839.25478	0.82573
837.83712	0.82919
836.41946	0.83165
835.00180	0.83342
833.58414	0.83457
832.16648	0.83511
830.74882	0.83527
829.33116	0.83526
827.91350	0.83478
826.49584	0.83281
825.07818	0.82838
823.66052	0.82167
822.24286	0.81456
820.82520	0.80995
819.40754	0.80973
817.98988	0.81341
816.57222	0.81872
815.15456	0.82357
813.73690	0.82694
812.31924	0.82850
810.90158	0.82789
809.48392	0.82522
808.06626	0.82209
806.64860	0.82022
805.23094	0.81850
803.81328	0.81383
802.39562	0.80669
800.97796	0.80293
799.56030	0.80747
798.14264	0.81856
796.72498	0.83036
795.30732	0.83886
793.88966	0.84380
792.47200	0.84658
791.05434	0.84851
789.63668	0.85037
788.21902	0.85238
786.80136	0.85429
785.38370	0.85576
783.96604	0.85677
782.54838	0.85755
781.13072	0.85798
779.71306	0.85712
778.29540	0.85271
776.87774	0.84039
775.46008	0.81351
774.04242	0.76742
772.62476	0.70836
771.20710	0.65629
769.78944	0.63156
768.37178	0.63737
766.95412	0.66047
765.53646	0.68769
764.11880	0.71500
762.70114	0.74224
761.28348	0.76758
759.86582	0.78899
758.44816	0.80592
757.03050	0.81839
755.61284	0.82664
754.19518	0.83158
752.77752	0.83422
751.35986	0.83508
749.94220	0.83462
748.52454	0.83376
747.10688	0.83355
745.68922	0.83443
744.27155	0.83600
742.85389	0.83748
741.43623	0.83795
740.01857	0.83524
738.60091	0.82530
737.18325	0.80510
735.76559	0.77795
734.34793	0.75419
732.93027	0.74401
731.51261	0.74927
730.09495	0.76357
728.67729	0.77861
727.25963	0.78839
725.84197	0.78925
724.42431	0.77950
723.00665	0.75931
721.58899	0.72973
720.17133	0.69201
718.75367	0.64901
717.33601	0.60561
715.91835	0.56449
714.50069	0.52222
713.08303	0.47480
711.66537	0.42937
710.24771	0.40512
708.83005	0.41724
707.41239	0.46113
705.99473	0.51436
704.57707	0.55211
703.15941	0.56254
701.74175	0.55314
700.32409	0.54267
698.90643	0.54200
697.48877	0.54231
696.07111	0.52613
694.65345	0.49093
693.23579	0.45762
691.81813	0.45230
690.40047	0.48247
688.98281	0.53364
687.56515	0.58552
686.14749	0.62681
684.72983	0.65639
683.31217	0.67688
681.89451	0.69088
680.47685	0.70116
679.05919	0.71097
677.64153	0.72231
676.22387	0.73491
674.80621	0.74733
673.38855	0.75834
671.97089	0.76741
670.55323	0.77513
669.13557	0.78244
667.71791	0.78723
666.30025	0.78274
664.88259	0.76389
663.46493	0.73071
662.04727	0.69077
660.62961	0.65787
659.21195	0.63859
657.79429	0.62823
656.37663	0.62583
654.95897	0.63881
653.54131	0.66902
652.12365	0.70586
650.70599	0.73695
649.28833	0.75803
647.87067	0.77120
646.45301	0.77957
645.03535	0.78527
643.61769	0.78945
642.20003	0.79274
640.78237	0.79574
639.36471	0.79878
637.94705	0.80139
636.52939	0.80257
635.11173	0.80181
633.69407	0.80012
632.27641	0.79966
630.85875	0.80183
629.44109	0.80595
628.02343	0.81024
626.60577	0.81352
625.18811	0.81582
623.77045	0.81773
622.35279	0.81910
620.93513	0.81837
619.51747	0.81403
618.09981	0.80773
616.68215	0.80427
615.26449	0.80688
613.84683	0.81354
612.42917	0.82001
611.01151	0.82444
609.59384	0.82749
608.17618	0.82980
606.75852	0.83140
605.34086	0.83250
603.92320	0.83360
602.50554	0.83496
601.08788	0.83643
599.67022	0.83757
598.25256	0.83812
596.83490	0.83845
595.41724	0.83928
593.99958	0.84087
592.58192	0.84268
591.16426	0.84375
589.74660	0.84335
588.32894	0.84138
586.91128	0.83780
585.49362	0.83235
584.07596	0.82531
582.65830	0.81842
581.24064	0.81418
579.82298	0.81409
578.40532	0.81773
576.98766	0.82346
575.57000	0.82963
574.15234	0.83516
572.73468	0.83970
571.31702	0.84368
569.89936	0.84761
568.48170	0.85116
567.06404	0.85362
565.64638	0.85504
564.22872	0.85613
562.81106	0.85703
561.39340	0.85721
559.97574	0.85645
558.55808	0.85534
557.14042	0.85473
555.72276	0.85483
554.30510	0.85481
552.88744	0.85349
551.46978	0.85064
550.05212	0.84706
548.63446	0.84352
547.21680	0.84020
545.79914	0.83754
544.38148	0.83666
542.96382	0.83831
541.54616	0.84168
540.12850	0.84510
538.71084	0.84745
537.29318	0.84830
535.87552	0.84761
534.45786	0.84586
533.04020	0.84395
531.62254	0.84242
530.20488	0.84125
528.78722	0.84019
527.36956	0.83893
525.95190	0.83721
524.53424	0.83540
523.11658	0.83484
521.69892	0.83694
520.28126	0.84208
518.86360	0.84905
517.44594	0.85577
516.02828	0.86096
514.61062	0.86463
513.19296	0.86714
511.77530	0.86833
510.35764	0.86819
508.93998	0.86729
507.52232	0.86627
506.10466	0.86491
504.68700	0.86162
503.26934	0.85408
501.85168	0.84118
500.43402	0.82400
499.01636	0.80385
497.59870	0.78078
496.18104	0.75632
494.76338	0.73579
493.34572	0.72551
491.92806	0.72792
490.51040	0.74029
489.09274	0.75756
487.67508	0.77539
486.25742	0.79125
484.83976	0.80419
483.42210	0.81446
482.00444	0.82270
480.58678	0.82901
479.16912	0.83285
477.75146	0.83405
476.33380	0.83374
474.91614	0.83373
473.49847	0.83472
472.08081	0.83590
470.66315	0.83640
469.24549	0.83622
467.82783	0.83557
466.41017	0.83478
464.99251	0.83456
463.57485	0.83510
462.15719	0.83521
460.73953	0.83355
459.32187	0.83042
457.90421	0.82759
456.48655	0.82636
455.06889	0.82682
453.65123	0.82883
452.23357	0.83261
450.81591	0.83801
449.39825	0.84397
447.98059	0.84919
446.56293	0.85310
445.14527	0.85592
443.72761	0.85787
442.30995	0.85856
440.89229	0.85760
439.47463	0.85499
438.05697	0.85053
436.63931	0.84361
435.22165	0.83373
433.80399	0.82037
432.38633	0.80250
430.96867	0.78009
429.55101	0.75701
428.13335	0.74048
426.71569	0.73595
425.29803	0.74321
423.88037	0.75707
422.46271	0.77184
421.04505	0.78495
419.62739	0.79628
418.20973	0.80579
416.79207	0.81333
415.37441	0.81844
413.95675	0.81990
412.53909	0.81786
411.12143	0.81647
409.70377	0.82067
408.28611	0.82984
406.86845	0.83766
405.45079	0.83872
404.03313	0.83300
402.61547	0.82355
401.19781	0.81314
399.78015	0.80460
398.36249	0.80181
396.94483	0.80665
395.52717	0.81594
394.10951	0.82469
392.69185	0.82928
391.27419	0.82783
389.85653	0.82112
388.43887	0.81195
387.02121	0.80203
385.60355	0.79154
384.18589	0.78311
382.76823	0.78264
381.35057	0.79294
379.93291	0.81004
378.51525	0.82724
377.09759	0.84013
375.67993	0.84765
374.26227	0.84972
